# wave	flux	error	model
# 
1.397023925781250000e+03 7.600552843621977833e-15 4.985837627259376726e-16 9.999999999977893239e-01
1.397053833007812500e+03 7.236695441568789799e-15 4.896742466702433145e-16 9.999999999972367659e-01
1.397083740234375000e+03 7.035069836386744282e-15 4.853333086946834320e-16 9.999999999966843189e-01
1.397113769531250000e+03 7.365993326901264238e-15 4.955352911487694457e-16 9.999999999961319830e-01
1.397143676757812500e+03 7.424697792343670777e-15 4.931480346660516070e-16 9.999999999955796470e-01
1.397173583984375000e+03 8.005987704924090453e-15 5.148058730339560157e-16 9.999999999955802021e-01
1.397203491210937500e+03 7.331610565506317678e-15 4.914949439903664331e-16 9.999999999955807573e-01
1.397233398437500000e+03 7.080464873128944001e-15 4.907096385691432899e-16 9.999999999955813124e-01
1.397263305664062500e+03 6.839215490190815941e-15 4.750996154446345855e-16 9.999999999955817565e-01
1.397293212890625000e+03 7.504554364544911704e-15 4.979414470541228960e-16 9.999999999955824226e-01
1.397323120117187500e+03 7.343660456213957355e-15 4.970276043831539127e-16 9.999999999955828667e-01
1.397353027343750000e+03 8.463870846320189351e-15 5.302741769584772349e-16 9.999999999955835328e-01
1.397382934570312500e+03 8.378181605244155311e-15 5.264041363620315401e-16 9.999999999955839769e-01
1.397412841796875000e+03 7.848896127493360658e-15 5.159602730619452203e-16 9.999999999955845320e-01
1.397442749023437500e+03 7.274889851226380710e-15 4.900563114690142073e-16 9.999999999955850871e-01
1.397472656250000000e+03 7.114181443110875053e-15 4.876577788601860457e-16 9.999999999955856422e-01
1.397502563476562500e+03 7.127854248945453969e-15 4.860845210397795896e-16 9.999999999955861973e-01
1.397532470703125000e+03 6.902048817734613567e-15 4.799417322271729968e-16 9.999999999955867525e-01
1.397562377929687500e+03 7.894719762906871052e-15 5.132966720801856661e-16 9.999999999955873076e-01
1.397592285156250000e+03 7.447971716635377187e-15 4.983855040767209629e-16 9.999999999955877517e-01
1.397622192382812500e+03 6.720693981529784339e-15 4.730915650244906564e-16 9.999999999955884178e-01
1.397652099609375000e+03 7.192340561285818362e-15 4.907813187323046850e-16 9.999999999955888619e-01
1.397682006835937500e+03 7.419836670259378347e-15 4.954027304925241477e-16 9.999999999955894170e-01
1.397711914062500000e+03 7.040126199565378828e-15 4.892377070650521294e-16 9.999999999955899721e-01
1.397741821289062500e+03 7.793962652732130264e-15 5.066651452570133420e-16 9.999999999955905272e-01
1.397771728515625000e+03 7.710268174246880102e-15 5.051037988374276495e-16 9.999999999955910823e-01
1.397801635742187500e+03 7.857086089060362488e-15 5.103840434119333476e-16 9.999999999955916374e-01
1.397831542968750000e+03 6.909675078875217660e-15 4.802249059293519501e-16 9.999999999955921925e-01
1.397861450195312500e+03 7.603070225541217614e-15 5.006324177879906048e-16 9.999999999955927477e-01
1.397891357421875000e+03 7.293518646835344538e-15 4.971902876485859418e-16 9.999999999955933028e-01
1.397921264648437500e+03 7.799650478972942891e-15 5.082670433789488341e-16 9.999999999955937469e-01
1.397951171875000000e+03 8.221372089784861198e-15 5.290217858064025485e-16 9.999999999955944130e-01
1.397981079101562500e+03 8.137530227566788787e-15 5.168934386720234423e-16 9.999999999955948571e-01
1.398010986328125000e+03 7.620311581182578897e-15 5.023683588738290899e-16 9.999999999955954122e-01
1.398040893554687500e+03 6.793891604216185584e-15 4.810026409936090080e-16 9.999999999955959673e-01
1.398070800781250000e+03 6.545659705177366700e-15 4.722001687266239121e-16 9.999999999955965224e-01
1.398100708007812500e+03 7.495688470686000943e-15 5.008801219855032842e-16 9.999999999955970775e-01
1.398130615234375000e+03 5.964369792596947023e-15 4.522878005652145993e-16 9.999999999955976326e-01
1.398160522460937500e+03 6.129532323465589419e-15 4.581588506204301720e-16 9.999999999955981878e-01
1.398190429687500000e+03 5.905598835068181021e-15 4.451378895783226434e-16 9.999999999955986318e-01
1.398220336914062500e+03 4.453008057778151674e-15 3.954062029648585178e-16 9.999999999955991870e-01
1.398250244140625000e+03 4.107817567816553911e-15 3.801284020441307110e-16 9.999999999955997421e-01
1.398280151367187500e+03 4.284470947647648145e-15 3.807709559439619029e-16 9.999999999956002972e-01
1.398310058593750000e+03 4.749411991076743500e-15 4.013502831419951721e-16 9.999999999956008523e-01
1.398339965820312500e+03 5.601871031391154887e-15 4.324736088163479803e-16 9.999999999956014074e-01
1.398369873046875000e+03 5.444591412646134637e-15 4.305675729267889910e-16 9.999999999956019625e-01
1.398399780273437500e+03 5.263972224555995769e-15 4.221212250745651250e-16 9.999999999956025176e-01
1.398429809570312500e+03 5.554632850955729811e-15 4.424370191468839000e-16 9.999999999956029617e-01
1.398459716796875000e+03 6.097121878288324498e-15 4.541694842575400275e-16 9.999999999956035168e-01
1.398489624023437500e+03 6.184638592948059690e-15 4.597785364342580044e-16 9.999999999956040719e-01
1.398519531250000000e+03 6.208565156125625539e-15 4.558991784753925122e-16 9.999999999956046270e-01
1.398549438476562500e+03 5.790478163690375435e-15 4.407879518776981840e-16 9.999999999956051822e-01
1.398579345703125000e+03 4.753041950772201804e-15 4.056932857603639869e-16 9.999999999956057373e-01
1.398609252929687500e+03 5.143671523189256509e-15 4.174300654450951911e-16 9.999999999956062924e-01
1.398639160156250000e+03 5.468000438692928108e-15 4.358429470618479769e-16 9.999999999956068475e-01
1.398669067382812500e+03 7.586162600881074525e-15 5.046803882429189061e-16 9.999999999956072916e-01
1.398698974609375000e+03 6.209445223357822757e-15 4.830705660552119755e-16 9.999999999956078467e-01
1.398728881835937500e+03 7.484633843691385069e-15 5.002862460103596129e-16 9.999999999956084018e-01
1.398758789062500000e+03 7.607635733126918293e-15 5.030485263304742931e-16 9.999999999956089569e-01
1.398788696289062500e+03 6.707853809082356400e-15 4.791737380418093634e-16 9.999999999956095120e-01
1.398818603515625000e+03 7.731900548686807678e-15 5.114571812165453427e-16 9.999999999956100671e-01
1.398848510742187500e+03 8.118033223186889302e-15 5.183919458348347064e-16 9.999999999956106222e-01
1.398878417968750000e+03 7.248464964370888303e-15 4.930256384051733606e-16 9.999999999956110663e-01
1.398908325195312500e+03 7.215351905363875940e-15 4.906391230762843694e-16 9.999999999956116215e-01
1.398938232421875000e+03 7.261782863400567667e-15 4.969698473240630101e-16 9.999999999956121766e-01
1.398968139648437500e+03 7.297987592665058226e-15 5.009628665165381887e-16 9.999999999956127317e-01
1.398998046875000000e+03 8.284811469402419276e-15 5.254380423461288072e-16 9.999999999956132868e-01
1.399027954101562500e+03 7.303268843091188789e-15 4.926744373694180463e-16 9.999999999956138419e-01
1.399057861328125000e+03 8.504618213280804723e-15 5.325699538828916092e-16 9.999999999956143970e-01
1.399087768554687500e+03 8.327443484670675466e-15 5.285995398821962798e-16 9.999999999956148411e-01
1.399117675781250000e+03 7.857443536964103803e-15 5.175343249757397273e-16 9.999999999956153962e-01
1.399147583007812500e+03 7.212237365216821877e-15 4.949785787441865568e-16 9.999999999956159513e-01
1.399177490234375000e+03 7.284985636924704716e-15 4.942368955197470100e-16 9.999999999956165064e-01
1.399207397460937500e+03 7.588641019284740608e-15 5.050608119153544937e-16 9.999999999956170615e-01
1.399237304687500000e+03 7.661722174940894386e-15 5.063585193301072852e-16 9.999999999956176167e-01
1.399267211914062500e+03 7.214572635052401983e-15 4.945019109531191993e-16 9.999999999956181718e-01
1.399297119140625000e+03 7.773173076074720717e-15 5.074337747170874161e-16 9.999999999956186159e-01
1.399327026367187500e+03 7.148869983399780415e-15 4.900454059198183082e-16 9.999999999956191710e-01
1.399356933593750000e+03 7.429002413781617131e-15 4.959430316337539845e-16 9.999999999956197261e-01
1.399386840820312500e+03 7.411163899912441566e-15 4.979697167787375083e-16 9.999999999956202812e-01
1.399416748046875000e+03 6.374070735337905927e-15 4.674059093056053688e-16 9.999999999956208363e-01
1.399446655273437500e+03 6.489321849789588675e-15 4.685333630979600459e-16 9.999999999956212804e-01
1.399476562500000000e+03 7.324970674232791218e-15 4.930714840634434996e-16 9.999999999956218355e-01
1.399506469726562500e+03 7.034202898165229506e-15 4.882054915397043577e-16 9.999999999956223906e-01
1.399536376953125000e+03 6.862682961510969959e-15 4.799760370615367960e-16 9.999999999956229457e-01
1.399566284179687500e+03 7.797496474188075205e-15 5.139933566793023281e-16 9.999999999956235008e-01
1.399596191406250000e+03 7.450876192611512183e-15 4.976427091215381449e-16 9.999999999956240559e-01
1.399626098632812500e+03 7.043346195314366051e-15 4.859739303006037001e-16 9.999999999956246111e-01
1.399656005859375000e+03 6.480564376147926464e-15 4.659405423068554292e-16 9.999999999956250551e-01
1.399685913085937500e+03 6.044056958208737090e-15 4.498668215832841988e-16 9.999999999956256103e-01
1.399715820312500000e+03 7.039167358269086960e-15 4.862869619141733674e-16 9.999999999956261654e-01
1.399745849609375000e+03 7.448328317506171248e-15 5.002235655722627947e-16 9.999999999956267205e-01
1.399775756835937500e+03 6.779805022786872942e-15 4.758228227629121478e-16 9.999999999956272756e-01
1.399805664062500000e+03 7.366031443383890681e-15 4.968431629588892888e-16 9.999999999956277197e-01
1.399835571289062500e+03 6.928990818204404725e-15 4.848439354094072600e-16 9.999999999956282748e-01
1.399865478515625000e+03 8.172364457522621889e-15 5.210950926673191957e-16 9.999999999956288299e-01
1.399895385742187500e+03 6.723362558830109012e-15 4.731845798300110192e-16 9.999999999956293850e-01
1.399925292968750000e+03 7.661840759553509989e-15 5.071639947233869215e-16 9.999999999961759478e-01
1.399955200195312500e+03 7.357318862488432948e-15 4.969752471591017563e-16 9.999999999967223996e-01
1.399985107421875000e+03 7.549907049639748707e-15 5.104161247848106042e-16 9.999999999972688514e-01
